Mass DM,SSHH,omega,SI 1,SI 2
10.0,0.1717,0.132,1.542e-07,8.687e-06
11.0,0.1685,0.132,1.376e-07,7.024e-06
12.0,0.1662,0.132,1.244e-07,5.818e-06
13.0,0.1643,0.132,1.135e-07,4.899e-06
14.0,0.16269999999999998,0.132,1.044e-07,4.182e-06
15.0,0.1612,0.132,9.652e-08,3.607e-06
16.0,0.1598,0.132,8.970e-08,3.138e-06
17.0,0.1585,0.132,8.374e-08,2.753e-06
18.0,0.157,0.132,7.834e-08,2.423e-06
19.0,0.1556,0.132,7.355e-08,2.147e-06
20.0,0.1541,0.132,6.920e-08,1.910e-06
21.0,0.1524,0.132,6.518e-08,1.701e-06
22.0,0.1507,0.132,6.152e-08,1.522e-06
23.0,0.1489,0.132,5.814e-08,1.364e-06
24.0,0.147,0.132,5.501e-08,1.225e-06
25.0,0.145,0.132,5.209e-08,1.102e-06
26.0,0.1429,0.132,4.936e-08,9.922e-07
27.0,0.1407,0.132,4.680e-08,8.943e-07
28.0,0.1383,0.132,4.436e-08,8.053e-07
29.0,0.1361,0.132,4.215e-08,7.287e-07
30.0,0.1341,0.131,4.015e-08,6.624e-07
31.0,0.1311,0.132,3.798e-08,5.941e-07
32.0,0.1281,0.132,3.595e-08,5.333e-07
33.0,0.1251,0.132,3.405e-08,4.791e-07
34.0,0.1221,0.132,3.225e-08,4.306e-07
35.0,0.1191,0.132,3.056e-08,3.872e-07
36.0,0.1161,0.132,2.896e-08,3.483e-07
37.0,0.1131,0.131,2.745e-08,3.134e-07
38.0,0.1091,0.132,2.579e-08,2.768e-07
39.0,0.1061,0.131,2.443e-08,2.488e-07
40.0,0.1021,0.131,2.292e-08,2.193e-07
41.0,0.0981,0.132,2.149e-08,1.929e-07
42.0,0.0941,0.132,2.012e-08,1.693e-07
43.0,0.0901,0.132,1.882e-08,1.483e-07
44.0,0.08610000000000001,0.132,1.757e-08,1.294e-07
45.0,0.0821,0.131,1.639e-08,1.126e-07
46.0,0.0771,0.132,1.505e-08,9.513e-08
47.0,0.0731,0.13,1.397e-08,8.199e-08
48.0,0.0671,0.131,1.256e-08,6.629e-08
49.0,0.0601,0.13,1.102e-08,5.107e-08
50.0,0.049100000000000005,0.131,8.820e-09,3.276e-08
51.0,0.0311,0.132,5.477e-09,1.264e-08
52.0,0.0151,0.125,2.608e-09,2.869e-09
53.0,0.0081,0.12300000000000001,1.373e-09,7.952e-10
54.0,0.0051,0.109,8.482e-10,3.039e-10
55.0,0.0031,0.114,5.062e-10,1.083e-10
57.0,0.0011,0.12300000000000001,1.733e-10,1.271e-11
58.0,0.0007000000000000001,0.126,1.084e-10,4.974e-12
60.0,0.00030000000000000003,0.124,4.491e-11,8.546e-13
61.0,0.0002,0.11,2.945e-11,3.676e-13
,,,,
63.0,0.004900000000000001,0.13,6.985e-10,2.071e-10
64.0,0.0106,0.13,1.488e-09,9.395e-10
65.0,0.0154,0.131,2.128e-09,1.923e-09
66.0,0.0197,0.131,2.681e-09,3.054e-09
67.0,0.0235,0.132,3.150e-09,4.219e-09
68.0,0.0268,0.132,3.540e-09,5.329e-09
69.0,0.0297,0.132,3.866e-09,6.359e-09
70.0,0.032000000000000015,0.132,4.106e-09,7.175e-09
71.0,0.033800000000000004,0.132,4.276e-09,7.784e-09
72.0,0.034900000000000014,0.132,4.353e-09,8.073e-09
73.0,0.0352,0.132,4.331e-09,7.992e-09
74.0,0.034900000000000014,0.132,4.236e-09,7.648e-09
75.0,0.033700000000000015,0.132,4.036e-09,6.944e-09
76.0,0.031500000000000014,0.132,3.723e-09,5.910e-09
77.0,0.0287,0.132,3.348e-09,4.781e-09
78.0,0.0254,0.132,2.925e-09,3.651e-09
79.0,0.0221,0.132,2.512e-09,2.695e-09
80.0,0.0193,0.132,2.167e-09,2.005e-09
81.0,0.0177,0.132,1.963e-09,1.645e-09
82.0,0.017,0.132,1.862e-09,1.481e-09
83.0,0.0166,0.132,1.796e-09,1.379e-09
84.0,0.0163,0.132,1.743e-09,1.299e-09
85.0,0.0163,0.132,1.722e-09,1.268e-09
86.0,0.0164,0.131,1.713e-09,1.255e-09
87.0,0.0164,0.132,1.693e-09,1.226e-09
88.0,0.0165,0.132,1.684e-09,1.214e-09
89.0,0.0165,0.132,1.665e-09,1.187e-09
90.0,0.0164,0.132,1.637e-09,1.147e-09
91.0,0.0163,0.132,1.609e-09,1.108e-09
92.0,0.0162,0.132,1.581e-09,1.071e-09
93.0,0.0162,0.132,1.564e-09,1.049e-09
94.0,0.0163,0.131,1.557e-09,1.039e-09
95.0,0.0164,0.131,1.550e-09,1.030e-09
96.0,0.0165,0.132,1.544e-09,1.022e-09
97.0,0.0166,0.132,1.537e-09,1.013e-09
98.0,0.0168,0.131,1.540e-09,1.017e-09
99.0,0.016900000000000002,0.132,1.533e-09,1.008e-09
100.0,0.0171,0.132,1.536e-09,1.012e-09
101.0,0.0173,0.132,1.538e-09,1.016e-09
102.0,0.0175,0.131,1.541e-09,1.019e-09
103.0,0.0176,0.132,1.535e-09,1.011e-09
104.0,0.0178,0.132,1.537e-09,1.015e-09
105.0,0.018000000000000002,0.132,1.540e-09,1.018e-09
106.0,0.0182,0.131,1.542e-09,1.021e-09
107.0,0.0184,0.131,1.544e-09,1.025e-09
108.0,0.0185,0.132,1.538e-09,1.017e-09
109.0,0.0187,0.132,1.541e-09,1.020e-09
110.0,0.0188,0.132,1.535e-09,1.013e-09
111.0,0.019,0.132,1.537e-09,1.016e-09
112.0,0.0192,0.132,1.540e-09,1.019e-09
113.0,0.0194,0.132,1.542e-09,1.022e-09
114.0,0.0196,0.132,1.544e-09,1.025e-09
115.0,0.0198,0.132,1.546e-09,1.028e-09
116.0,0.02,0.131,1.548e-09,1.031e-09
117.0,0.0201,0.132,1.543e-09,1.024e-09
118.0,0.0203,0.132,1.545e-09,1.027e-09
119.0,0.0204,0.132,1.540e-09,1.020e-09
120.0,0.0206,0.131,1.542e-09,1.023e-09
121.0,0.0207,0.131,1.536e-09,1.016e-09
122.0,0.0207,0.132,1.524e-09,9.997e-10
123.0,0.0207,0.131,1.511e-09,9.836e-10
124.0,0.0205,0.132,1.485e-09,9.493e-10
125.0,0.0201,0.132,1.444e-09,8.982e-10
126.0,0.0198,0.132,1.411e-09,8.579e-10
127.0,0.0197,0.132,1.393e-09,8.360e-10
128.0,0.0197,0.132,1.382e-09,8.231e-10
129.0,0.0197,0.132,1.372e-09,8.105e-10
130.0,0.0197,0.132,1.361e-09,7.982e-10
131.0,0.0197,0.132,1.351e-09,7.861e-10
132.0,0.0198,0.132,1.347e-09,7.822e-10
133.0,0.0198,0.132,1.337e-09,7.706e-10
134.0,0.0199,0.132,1.334e-09,7.669e-10
135.0,0.02,0.132,1.331e-09,7.632e-10
136.0,0.0201,0.132,1.327e-09,7.597e-10
137.0,0.0202,0.132,1.324e-09,7.562e-10
138.0,0.0203,0.132,1.321e-09,7.527e-10
139.0,0.0204,0.132,1.318e-09,7.493e-10
140.0,0.0205,0.132,1.315e-09,7.460e-10
141.0,0.0206,0.132,1.312e-09,7.427e-10
142.0,0.0207,0.132,1.309e-09,7.395e-10
143.0,0.0209,0.131,1.313e-09,7.434e-10
144.0,0.021,0.132,1.310e-09,7.402e-10
145.0,0.0211,0.132,1.307e-09,7.371e-10
146.0,0.0212,0.132,1.304e-09,7.340e-10
147.0,0.0213,0.132,1.301e-09,7.309e-10
148.0,0.0215,0.132,1.305e-09,7.348e-10
149.0,0.0216,0.132,1.302e-09,7.318e-10
150.0,0.0217,0.132,1.299e-09,7.288e-10
151.0,0.0219,0.132,1.303e-09,7.326e-10
152.0,0.022000000000000002,0.132,1.300e-09,7.296e-10
153.0,0.0221,0.132,1.297e-09,7.267e-10
154.0,0.0223,0.132,1.301e-09,7.304e-10
155.0,0.0224,0.132,1.298e-09,7.276e-10
156.0,0.0226,0.131,1.301e-09,7.312e-10
157.0,0.0227,0.132,1.299e-09,7.284e-10
158.0,0.0228,0.132,1.296e-09,7.256e-10
159.0,0.023,0.132,1.299e-09,7.292e-10
160.0,0.0231,0.132,1.297e-09,7.264e-10
161.0,0.0233,0.131,1.300e-09,7.300e-10
162.0,0.0234,0.132,1.297e-09,7.272e-10
163.0,0.0235,0.132,1.295e-09,7.245e-10
164.0,0.0237,0.132,1.298e-09,7.280e-10
165.0,0.0238,0.132,1.295e-09,7.254e-10
166.0,0.024,0.132,1.299e-09,7.288e-10
167.0,0.0241,0.132,1.296e-09,7.261e-10
168.0,0.0242,0.132,1.294e-09,7.235e-10
169.0,0.0244,0.132,1.297e-09,7.269e-10
170.0,0.0245,0.132,1.294e-09,7.243e-10
171.0,0.0246,0.132,1.292e-09,7.218e-10
172.0,0.0248,0.132,1.295e-09,7.251e-10
173.0,0.0249,0.132,1.293e-09,7.226e-10
174.0,0.025,0.132,1.290e-09,7.201e-10
175.0,0.0251,0.132,1.288e-09,7.177e-10
176.0,0.0252,0.132,1.286e-09,7.152e-10
177.0,0.0253,0.132,1.284e-09,7.128e-10
178.0,0.0254,0.132,1.282e-09,7.105e-10
179.0,0.0254,0.132,1.274e-09,7.026e-10
180.0,0.0255,0.132,1.272e-09,7.003e-10
181.0,0.0256,0.132,1.270e-09,6.981e-10
182.0,0.0257,0.132,1.268e-09,6.959e-10
183.0,0.0258,0.132,1.266e-09,6.937e-10
184.0,0.0259,0.132,1.264e-09,6.916e-10
185.0,0.026,0.132,1.262e-09,6.894e-10
186.0,0.026,0.132,1.255e-09,6.821e-10
187.0,0.0261,0.132,1.254e-09,6.800e-10
188.0,0.0262,0.132,1.252e-09,6.780e-10
189.0,0.0263,0.132,1.250e-09,6.760e-10
190.0,0.0264,0.132,1.248e-09,6.741e-10
191.0,0.0265,0.132,1.246e-09,6.721e-10
192.0,0.0266,0.132,1.244e-09,6.702e-10
193.0,0.0267,0.132,1.242e-09,6.683e-10
194.0,0.0268,0.132,1.241e-09,6.664e-10
195.0,0.0269,0.132,1.239e-09,6.646e-10
196.0,0.027000000000000003,0.132,1.237e-09,6.628e-10
197.0,0.0271,0.132,1.235e-09,6.609e-10
198.0,0.0272,0.132,1.234e-09,6.592e-10
199.0,0.0273,0.132,1.232e-09,6.574e-10
200.0,0.03,0.11199999999999999,1.347e-09,7.860e-10
202.0,0.03,0.113,1.334e-09,7.706e-10
204.0,0.03,0.115,1.321e-09,7.556e-10
206.0,0.03,0.11699999999999999,1.308e-09,7.411e-10
208.0,0.03,0.11800000000000001,1.295e-09,7.269e-10
210.0,0.03,0.12,1.283e-09,7.132e-10
212.0,0.03,0.122,1.271e-09,6.999e-10
214.0,0.03,0.124,1.259e-09,6.869e-10
216.0,0.03,0.126,1.247e-09,6.743e-10
218.0,0.03,0.128,1.236e-09,6.620e-10
220.0,0.03,0.13,1.225e-09,6.501e-10
222.0,0.03,0.132,1.214e-09,6.385e-10
266.0,0.04,0.10800000000000001,1.351e-09,7.918e-10
268.0,0.04,0.11,1.340e-09,7.800e-10
270.0,0.04,0.11199999999999999,1.331e-09,7.685e-10
272.0,0.04,0.113,1.321e-09,7.573e-10
274.0,0.04,0.115,1.311e-09,7.463e-10
276.0,0.04,0.11699999999999999,1.302e-09,7.356e-10
278.0,0.04,0.11800000000000001,1.292e-09,7.251e-10
280.0,0.04,0.12,1.283e-09,7.148e-10
282.0,0.04,0.122,1.274e-09,7.047e-10
284.0,0.04,0.12300000000000001,1.265e-09,6.949e-10
286.0,0.04,0.125,1.256e-09,6.852e-10
288.0,0.04,0.127,1.247e-09,6.758e-10
290.0,0.04,0.129,1.239e-09,6.665e-10
292.0,0.04,0.131,1.230e-09,6.574e-10
294.0,0.04,0.132,1.222e-09,6.486e-10
328.0,0.05,0.109,1.369e-09,8.147e-10
330.0,0.05,0.11,1.361e-09,8.049e-10
332.0,0.05,0.111,1.353e-09,7.952e-10
334.0,0.05,0.113,1.345e-09,7.858e-10
336.0,0.05,0.114,1.337e-09,7.765e-10
338.0,0.05,0.11599999999999999,1.329e-09,7.673e-10
340.0,0.05,0.11699999999999999,1.321e-09,7.584e-10
342.0,0.05,0.11800000000000001,1.313e-09,7.495e-10
344.0,0.05,0.12,1.305e-09,7.409e-10
346.0,0.05,0.121,1.298e-09,7.324e-10
348.0,0.05,0.12300000000000001,1.290e-09,7.240e-10
350.0,0.05,0.124,1.283e-09,7.158e-10
352.0,0.05,0.126,1.276e-09,7.077e-10
354.0,0.05,0.127,1.269e-09,6.997e-10
356.0,0.05,0.129,1.261e-09,6.919e-10
358.0,0.05,0.13,1.254e-09,6.842e-10
360.0,0.05,0.132,1.247e-09,6.767e-10
386.0,0.06000000000000001,0.10800000000000001,1.396e-09,8.478e-10
388.0,0.06000000000000001,0.109,1.389e-09,8.391e-10
390.0,0.06000000000000001,0.11,1.382e-09,8.306e-10
392.0,0.06000000000000001,0.111,1.375e-09,8.221e-10
394.0,0.06000000000000001,0.11199999999999999,1.368e-09,8.138e-10
396.0,0.06000000000000001,0.113,1.361e-09,8.057e-10
398.0,0.06000000000000001,0.114,1.354e-09,7.976e-10
400.0,0.06000000000000001,0.11599999999999999,1.347e-09,7.897e-10
402.0,0.06000000000000001,0.11699999999999999,1.340e-09,7.818e-10
404.0,0.06000000000000001,0.11800000000000001,1.334e-09,7.741e-10
406.0,0.06000000000000001,0.11900000000000001,1.327e-09,7.665e-10
408.0,0.06000000000000001,0.12,1.321e-09,7.591e-10
410.0,0.06000000000000001,0.122,1.314e-09,7.517e-10
412.0,0.06000000000000001,0.12300000000000001,1.308e-09,7.444e-10
414.0,0.06000000000000001,0.124,1.302e-09,7.373e-10
416.0,0.06000000000000001,0.125,1.295e-09,7.302e-10
418.0,0.06000000000000001,0.126,1.289e-09,7.233e-10
420.0,0.06000000000000001,0.128,1.283e-09,7.164e-10
422.0,0.06000000000000001,0.129,1.277e-09,7.096e-10
424.0,0.06000000000000001,0.13,1.271e-09,7.030e-10
426.0,0.06000000000000001,0.131,1.265e-09,6.964e-10
446.0,0.06999999999999999,0.10800000000000001,1.410e-09,8.650e-10
448.0,0.06999999999999999,0.109,1.403e-09,8.573e-10
450.0,0.06999999999999999,0.11,1.397e-09,8.497e-10
452.0,0.06999999999999999,0.111,1.391e-09,8.422e-10
454.0,0.06999999999999999,0.11199999999999999,1.385e-09,8.348e-10
456.0,0.06999999999999999,0.113,1.379e-09,8.275e-10
458.0,0.06999999999999999,0.114,1.373e-09,8.203e-10
460.0,0.06999999999999999,0.115,1.367e-09,8.132e-10
462.0,0.06999999999999999,0.11599999999999999,1.361e-09,8.062e-10
464.0,0.06999999999999999,0.11699999999999999,1.355e-09,7.993e-10
466.0,0.06999999999999999,0.11800000000000001,1.349e-09,7.924e-10
468.0,0.06999999999999999,0.11900000000000001,1.343e-09,7.857e-10
470.0,0.06999999999999999,0.12,1.338e-09,7.790e-10
472.0,0.06999999999999999,0.121,1.332e-09,7.725e-10
474.0,0.06999999999999999,0.122,1.326e-09,7.660e-10
476.0,0.06999999999999999,0.12300000000000001,1.321e-09,7.596e-10
478.0,0.06999999999999999,0.124,1.315e-09,7.532e-10
480.0,0.06999999999999999,0.125,1.310e-09,7.470e-10
482.0,0.06999999999999999,0.126,1.304e-09,7.408e-10
484.0,0.06999999999999999,0.127,1.299e-09,7.347e-10
486.0,0.06999999999999999,0.128,1.294e-09,7.287e-10
488.0,0.06999999999999999,0.129,1.288e-09,7.227e-10
490.0,0.06999999999999999,0.13,1.283e-09,7.169e-10
492.0,0.06999999999999999,0.131,1.278e-09,7.111e-10
494.0,0.06999999999999999,0.132,1.273e-09,7.053e-10
506.0,0.08,0.10800000000000001,1.420e-09,8.781e-10
508.0,0.08,0.10800000000000001,1.414e-09,8.712e-10
510.0,0.08,0.109,1.409e-09,8.644e-10
512.0,0.08,0.11,1.403e-09,8.577e-10
514.0,0.08,0.111,1.398e-09,8.511e-10
516.0,0.08,0.11199999999999999,1.392e-09,8.445e-10
518.0,0.08,0.113,1.387e-09,8.380e-10
520.0,0.08,0.114,1.382e-09,8.316e-10
522.0,0.08,0.115,1.376e-09,8.252e-10
524.0,0.08,0.115,1.371e-09,8.189e-10
526.0,0.08,0.11599999999999999,1.366e-09,8.127e-10
528.0,0.08,0.11699999999999999,1.361e-09,8.066e-10
530.0,0.08,0.11800000000000001,1.356e-09,8.005e-10
532.0,0.08,0.11900000000000001,1.351e-09,7.945e-10
534.0,0.08,0.12,1.346e-09,7.886e-10
536.0,0.08,0.121,1.340e-09,7.827e-10
538.0,0.08,0.122,1.336e-09,7.770e-10
540.0,0.08,0.122,1.331e-09,7.712e-10
542.0,0.08,0.12300000000000001,1.326e-09,7.655e-10
544.0,0.08,0.124,1.321e-09,7.599e-10
546.0,0.08,0.125,1.316e-09,7.544e-10
548.0,0.08,0.126,1.311e-09,7.489e-10
550.0,0.08,0.127,1.306e-09,7.435e-10
552.0,0.08,0.128,1.302e-09,7.381e-10
554.0,0.08,0.129,1.297e-09,7.328e-10
556.0,0.08,0.13,1.292e-09,7.275e-10
558.0,0.08,0.131,1.288e-09,7.223e-10
560.0,0.08,0.132,1.283e-09,7.172e-10
568.0,0.09,0.10800000000000001,1.423e-09,8.824e-10
570.0,0.09,0.109,1.418e-09,8.762e-10
572.0,0.09,0.11,1.413e-09,8.701e-10
574.0,0.09,0.11,1.408e-09,8.640e-10
576.0,0.09,0.111,1.403e-09,8.581e-10
578.0,0.09,0.11199999999999999,1.398e-09,8.521e-10
580.0,0.09,0.113,1.394e-09,8.463e-10
582.0,0.09,0.114,1.389e-09,8.405e-10
584.0,0.09,0.114,1.384e-09,8.348e-10
586.0,0.09,0.115,1.379e-09,8.291e-10
588.0,0.09,0.11599999999999999,1.375e-09,8.234e-10
590.0,0.09,0.11699999999999999,1.370e-09,8.179e-10
592.0,0.09,0.11699999999999999,1.365e-09,8.124e-10
594.0,0.09,0.11800000000000001,1.361e-09,8.069e-10
596.0,0.09,0.11900000000000001,1.356e-09,8.015e-10
598.0,0.09,0.12,1.352e-09,7.962e-10
600.0,0.09,0.121,1.347e-09,7.909e-10
602.0,0.09,0.121,1.343e-09,7.857e-10
604.0,0.09,0.122,1.338e-09,7.805e-10
606.0,0.09,0.12300000000000001,1.334e-09,7.753e-10
608.0,0.09,0.124,1.329e-09,7.702e-10
610.0,0.09,0.125,1.325e-09,7.652e-10
612.0,0.09,0.125,1.321e-09,7.602e-10
614.0,0.09,0.126,1.316e-09,7.553e-10
616.0,0.09,0.127,1.312e-09,7.504e-10
618.0,0.09,0.128,1.308e-09,7.456e-10
620.0,0.09,0.129,1.304e-09,7.408e-10
622.0,0.09,0.129,1.300e-09,7.360e-10
624.0,0.09,0.13,1.295e-09,7.313e-10
626.0,0.09,0.131,1.291e-09,7.267e-10
628.0,0.09,0.132,1.287e-09,7.220e-10
630.0,0.1,0.109,1.426e-09,8.858e-10
632.0,0.1,0.109,1.421e-09,8.802e-10
634.0,0.1,0.11,1.417e-09,8.746e-10
636.0,0.1,0.111,1.412e-09,8.692e-10
638.0,0.1,0.111,1.408e-09,8.637e-10
640.0,0.1,0.11199999999999999,1.403e-09,8.583e-10
642.0,0.1,0.113,1.399e-09,8.530e-10
644.0,0.1,0.113,1.395e-09,8.477e-10
646.0,0.1,0.114,1.390e-09,8.425e-10
648.0,0.1,0.115,1.386e-09,8.373e-10
650.0,0.1,0.115,1.382e-09,8.322e-10
652.0,0.1,0.11599999999999999,1.377e-09,8.271e-10
654.0,0.1,0.11699999999999999,1.373e-09,8.220e-10
656.0,0.1,0.11699999999999999,1.369e-09,8.170e-10
658.0,0.1,0.11800000000000001,1.365e-09,8.121e-10
660.0,0.1,0.11900000000000001,1.361e-09,8.072e-10
662.0,0.1,0.12,1.357e-09,8.023e-10
664.0,0.1,0.12,1.353e-09,7.975e-10
666.0,0.1,0.121,1.349e-09,7.927e-10
668.0,0.1,0.122,1.345e-09,7.880e-10
670.0,0.1,0.122,1.340e-09,7.833e-10
672.0,0.1,0.12300000000000001,1.337e-09,7.786e-10
674.0,0.1,0.124,1.333e-09,7.740e-10
676.0,0.1,0.125,1.329e-09,7.695e-10
678.0,0.1,0.125,1.325e-09,7.649e-10
680.0,0.1,0.126,1.321e-09,7.605e-10
682.0,0.1,0.127,1.317e-09,7.560e-10
684.0,0.1,0.127,1.313e-09,7.516e-10
686.0,0.1,0.128,1.309e-09,7.472e-10
688.0,0.1,0.129,1.305e-09,7.429e-10
690.0,0.1,0.13,1.302e-09,7.386e-10
692.0,0.1,0.13,1.298e-09,7.343e-10
694.0,0.1,0.131,1.294e-09,7.301e-10
696.0,0.1,0.132,1.290e-09,7.259e-10
698.0,0.11,0.111,1.415e-09,8.734e-10
700.0,0.11,0.111,1.411e-09,8.684e-10
702.0,0.11,0.11199999999999999,1.407e-09,8.635e-10
704.0,0.11,0.11199999999999999,1.403e-09,8.586e-10
706.0,0.11,0.113,1.399e-09,8.537e-10
708.0,0.11,0.114,1.395e-09,8.489e-10
710.0,0.11,0.114,1.391e-09,8.441e-10
712.0,0.11,0.115,1.388e-09,8.394e-10
714.0,0.11,0.11599999999999999,1.384e-09,8.347e-10
716.0,0.11,0.11599999999999999,1.380e-09,8.301e-10
718.0,0.11,0.11699999999999999,1.376e-09,8.255e-10
720.0,0.11,0.11800000000000001,1.372e-09,8.209e-10
722.0,0.11,0.11800000000000001,1.368e-09,8.163e-10
724.0,0.11,0.11900000000000001,1.365e-09,8.118e-10
726.0,0.11,0.11900000000000001,1.361e-09,8.074e-10
728.0,0.11,0.12,1.357e-09,8.030e-10
730.0,0.11,0.121,1.353e-09,7.986e-10
732.0,0.11,0.121,1.350e-09,7.942e-10
734.0,0.11,0.122,1.346e-09,7.899e-10
736.0,0.11,0.12300000000000001,1.342e-09,7.856e-10
738.0,0.11,0.12300000000000001,1.339e-09,7.814e-10
740.0,0.11,0.124,1.335e-09,7.772e-10
742.0,0.11,0.125,1.331e-09,7.730e-10
744.0,0.11,0.125,1.328e-09,7.688e-10
746.0,0.11,0.126,1.324e-09,7.647e-10
748.0,0.11,0.127,1.321e-09,7.607e-10
750.0,0.11,0.127,1.317e-09,7.566e-10
752.0,0.11,0.128,1.314e-09,7.526e-10
754.0,0.11,0.128,1.310e-09,7.486e-10
756.0,0.11,0.129,1.307e-09,7.447e-10
758.0,0.11,0.13,1.303e-09,7.407e-10
760.0,0.11,0.13,1.300e-09,7.368e-10
762.0,0.11,0.131,1.297e-09,7.330e-10
764.0,0.11,0.132,1.293e-09,7.292e-10
766.0,0.11,0.132,1.290e-09,7.254e-10
768.0,0.12,0.113,1.403e-09,8.588e-10
770.0,0.12,0.113,1.400e-09,8.543e-10
772.0,0.12,0.114,1.396e-09,8.499e-10
774.0,0.12,0.115,1.392e-09,8.455e-10
776.0,0.12,0.115,1.389e-09,8.412e-10
778.0,0.12,0.11599999999999999,1.385e-09,8.369e-10
780.0,0.12,0.11599999999999999,1.382e-09,8.326e-10
782.0,0.12,0.11699999999999999,1.378e-09,8.283e-10
784.0,0.12,0.11699999999999999,1.375e-09,8.241e-10
786.0,0.12,0.11800000000000001,1.371e-09,8.199e-10
788.0,0.12,0.11900000000000001,1.368e-09,8.158e-10
790.0,0.12,0.11900000000000001,1.364e-09,8.117e-10
792.0,0.12,0.12,1.361e-09,8.076e-10
794.0,0.12,0.12,1.357e-09,8.035e-10
796.0,0.12,0.121,1.354e-09,7.995e-10
798.0,0.12,0.121,1.351e-09,7.955e-10
800.0,0.12,0.122,1.347e-09,7.915e-10
802.0,0.12,0.12300000000000001,1.344e-09,7.876e-10
804.0,0.12,0.12300000000000001,1.340e-09,7.837e-10
806.0,0.12,0.124,1.337e-09,7.798e-10
808.0,0.12,0.124,1.334e-09,7.759e-10
810.0,0.12,0.125,1.331e-09,7.721e-10
812.0,0.12,0.126,1.327e-09,7.683e-10
814.0,0.12,0.126,1.324e-09,7.645e-10
816.0,0.12,0.127,1.321e-09,7.608e-10
818.0,0.12,0.127,1.318e-09,7.571e-10
820.0,0.12,0.128,1.314e-09,7.534e-10
822.0,0.12,0.129,1.311e-09,7.498e-10
824.0,0.12,0.129,1.308e-09,7.461e-10
826.0,0.12,0.13,1.305e-09,7.425e-10
828.0,0.12,0.13,1.302e-09,7.389e-10
830.0,0.12,0.131,1.299e-09,7.354e-10
832.0,0.12,0.132,1.295e-09,7.319e-10
834.0,0.12,0.132,1.292e-09,7.284e-10
836.0,0.13,0.114,1.397e-09,8.507e-10
838.0,0.13,0.115,1.393e-09,8.467e-10
840.0,0.13,0.115,1.390e-09,8.427e-10
842.0,0.13,0.11599999999999999,1.387e-09,8.387e-10
844.0,0.13,0.11599999999999999,1.383e-09,8.347e-10
846.0,0.13,0.11699999999999999,1.380e-09,8.308e-10
848.0,0.13,0.11699999999999999,1.377e-09,8.268e-10
850.0,0.13,0.11800000000000001,1.374e-09,8.230e-10
852.0,0.13,0.11800000000000001,1.370e-09,8.191e-10
854.0,0.13,0.11900000000000001,1.367e-09,8.153e-10
856.0,0.13,0.11900000000000001,1.364e-09,8.115e-10
858.0,0.13,0.12,1.361e-09,8.077e-10
860.0,0.13,0.12,1.358e-09,8.040e-10
862.0,0.13,0.121,1.354e-09,8.002e-10
864.0,0.13,0.122,1.351e-09,7.965e-10
866.0,0.13,0.122,1.348e-09,7.929e-10
868.0,0.13,0.12300000000000001,1.345e-09,7.892e-10
870.0,0.13,0.12300000000000001,1.342e-09,7.856e-10
872.0,0.13,0.124,1.339e-09,7.820e-10
874.0,0.13,0.124,1.336e-09,7.784e-10
876.0,0.13,0.125,1.333e-09,7.749e-10
878.0,0.13,0.125,1.330e-09,7.714e-10
880.0,0.13,0.126,1.327e-09,7.679e-10
882.0,0.13,0.127,1.324e-09,7.644e-10
884.0,0.13,0.127,1.321e-09,7.609e-10
886.0,0.13,0.128,1.318e-09,7.575e-10
888.0,0.13,0.128,1.315e-09,7.541e-10
890.0,0.13,0.129,1.312e-09,7.507e-10
892.0,0.13,0.129,1.309e-09,7.474e-10
894.0,0.13,0.13,1.306e-09,7.440e-10
896.0,0.13,0.13,1.303e-09,7.407e-10
898.0,0.13,0.131,1.300e-09,7.374e-10
900.0,0.13,0.132,1.297e-09,7.342e-10
902.0,0.13,0.132,1.294e-09,7.309e-10
904.0,0.14,0.115,1.391e-09,8.439e-10
906.0,0.14,0.11599999999999999,1.388e-09,8.402e-10
908.0,0.14,0.11599999999999999,1.385e-09,8.365e-10
910.0,0.14,0.11699999999999999,1.382e-09,8.329e-10
